 ****************** Start WS v. 1.61 at 2014-10-14 09:05:28 ******************
 
 Wiggler A at APS
 energy   7.000 GeV   current 100.0 mA
 period   8.500  cm   N        28.0      Kx      0.000      Ky      8.740
 emin    1000.0  eV   emax 100000.0 eV   ne       2000
 d       30.000   m   xpc     0.000 mm   ypc     0.000 mm
 xps      2.000  mm   yps     2.000 mm   nxp        10      nyp        10
 
 b0       1.101   T   ec0    35.884  keV
 e1      139.67  eV   l1     88.767  A
 ptot    8947.6   W   pd       89.1  W/mm^2
 
 Flux through   2.000 mm x  2.000 mm pinhole at  0.000 mm,  0.000 mm @ 30.000 m:
 Integrated flux   6.642E+16 ph/s
 Integrated power     262.21 W
 
 Energy(eV)   Flux(ph/s/0.1%bw)    p1      p2      p3      p4
   1000.000   4.326522E+012     0.982   0.000   0.000   0.018
   1049.525   4.466798E+012     0.982   0.000   0.000   0.018
   1099.050   4.604711E+012     0.981   0.000   0.000   0.019
   1148.574   4.740390E+012     0.981   0.000   0.000   0.019
   1198.099   4.873955E+012     0.981   0.000   0.000   0.019
   1247.624   5.005511E+012     0.980   0.000   0.000   0.020
   1297.149   5.135157E+012     0.980   0.000   0.000   0.020
   1346.673   5.262981E+012     0.979   0.000   0.000   0.021
   1396.198   5.389064E+012     0.979   0.000   0.000   0.021
   1445.723   5.513479E+012     0.978   0.000   0.000   0.022
   1495.248   5.636297E+012     0.978   0.000   0.000   0.022
   1544.772   5.757579E+012     0.977   0.000   0.000   0.023
   1594.297   5.877384E+012     0.977   0.000   0.000   0.023
   1643.822   5.995767E+012     0.977   0.000   0.000   0.023
   1693.347   6.112778E+012     0.976   0.000   0.000   0.024
   1742.871   6.228465E+012     0.976   0.000   0.000   0.024
   1792.396   6.342871E+012     0.976   0.000   0.000   0.024
   1841.921   6.456038E+012     0.975   0.000   0.000   0.025
   1891.446   6.568005E+012     0.975   0.000   0.000   0.025
   1940.970   6.678807E+012     0.974   0.000   0.000   0.026
   1990.495   6.788479E+012     0.974   0.000   0.000   0.026
   2040.020   6.897054E+012     0.974   0.000   0.000   0.026
   2089.545   7.004562E+012     0.973   0.000   0.000   0.027
   2139.070   7.111031E+012     0.973   0.000   0.000   0.027
   2188.594   7.216489E+012     0.973   0.000   0.000   0.027
   2238.119   7.320962E+012     0.972   0.000   0.000   0.028
   2287.644   7.424475E+012     0.972   0.000   0.000   0.028
   2337.169   7.527050E+012     0.972   0.000   0.000   0.028
   2386.693   7.628710E+012     0.971   0.000   0.000   0.029
   2436.218   7.729477E+012     0.971   0.000   0.000   0.029
   2485.743   7.829370E+012     0.971   0.000   0.000   0.029
   2535.268   7.928408E+012     0.971   0.000   0.000   0.029
   2584.792   8.026611E+012     0.970   0.000   0.000   0.030
   2634.317   8.123995E+012     0.970   0.000   0.000   0.030
   2683.842   8.220578E+012     0.970   0.000   0.000   0.030
   2733.367   8.316375E+012     0.969   0.000   0.000   0.031
   2782.891   8.411403E+012     0.969   0.000   0.000   0.031
   2832.416   8.505675E+012     0.969   0.000   0.000   0.031
   2881.941   8.599207E+012     0.969   0.000   0.000   0.031
   2931.466   8.692012E+012     0.968   0.000   0.000   0.032
   2980.990   8.784103E+012     0.968   0.000   0.000   0.032
   3030.515   8.875493E+012     0.968   0.000   0.000   0.032
   3080.040   8.966194E+012     0.967   0.000   0.000   0.033
   3129.565   9.056218E+012     0.967   0.000   0.000   0.033
   3179.090   9.145577E+012     0.967   0.000   0.000   0.033
   3228.614   9.234280E+012     0.967   0.000   0.000   0.033
   3278.139   9.322340E+012     0.966   0.000   0.000   0.034
   3327.664   9.409765E+012     0.966   0.000   0.000   0.034
   3377.189   9.496567E+012     0.966   0.000   0.000   0.034
   3426.713   9.582754E+012     0.966   0.000   0.000   0.034
   3476.238   9.668336E+012     0.965   0.000   0.000   0.035
   3525.763   9.753322E+012     0.965   0.000   0.000   0.035
   3575.288   9.837720E+012     0.965   0.000   0.000   0.035
   3624.812   9.921539E+012     0.965   0.000   0.000   0.035
   3674.337   1.000479E+013     0.964   0.000   0.000   0.036
   3723.862   1.008747E+013     0.964   0.000   0.000   0.036
   3773.387   1.016960E+013     0.964   0.000   0.000   0.036
   3822.911   1.025118E+013     0.964   0.000   0.000   0.036
   3872.436   1.033223E+013     0.963   0.000   0.000   0.037
   3921.961   1.041273E+013     0.963   0.000   0.000   0.037
   3971.486   1.049271E+013     0.963   0.000   0.000   0.037
   4021.011   1.057218E+013     0.963   0.000   0.000   0.037
   4070.535   1.065112E+013     0.963   0.000   0.000   0.037
   4120.060   1.072956E+013     0.962   0.000   0.000   0.038
   4169.585   1.080750E+013     0.962   0.000   0.000   0.038
   4219.110   1.088495E+013     0.962   0.000   0.000   0.038
   4268.634   1.096190E+013     0.962   0.000   0.000   0.038
   4318.159   1.103837E+013     0.962   0.000   0.000   0.038
   4367.684   1.111437E+013     0.961   0.000   0.000   0.039
   4417.209   1.118989E+013     0.961   0.000   0.000   0.039
   4466.733   1.126494E+013     0.961   0.000   0.000   0.039
   4516.258   1.133953E+013     0.961   0.000   0.000   0.039
   4565.783   1.141366E+013     0.960   0.000   0.000   0.040
   4615.308   1.148734E+013     0.960   0.000   0.000   0.040
   4664.832   1.156058E+013     0.960   0.000   0.000   0.040
   4714.357   1.163337E+013     0.960   0.000   0.000   0.040
   4763.882   1.170572E+013     0.960   0.000   0.000   0.040
   4813.407   1.177764E+013     0.960   0.000   0.000   0.040
   4862.931   1.184913E+013     0.959   0.000   0.000   0.041
   4912.456   1.192019E+013     0.959   0.000   0.000   0.041
   4961.981   1.199084E+013     0.959   0.000   0.000   0.041
   5011.506   1.206106E+013     0.959   0.000   0.000   0.041
   5061.031   1.213088E+013     0.959   0.000   0.000   0.041
   5110.555   1.220028E+013     0.958   0.000   0.000   0.042
   5160.080   1.226928E+013     0.958   0.000   0.000   0.042
   5209.605   1.233788E+013     0.958   0.000   0.000   0.042
   5259.130   1.240608E+013     0.958   0.000   0.000   0.042
   5308.654   1.247389E+013     0.958   0.000   0.000   0.042
   5358.179   1.254131E+013     0.957   0.000   0.000   0.043
   5407.704   1.260834E+013     0.957   0.000   0.000   0.043
   5457.229   1.267498E+013     0.957   0.000   0.000   0.043
   5506.753   1.274125E+013     0.957   0.000   0.000   0.043
   5556.278   1.280714E+013     0.957   0.000   0.000   0.043
   5605.803   1.287266E+013     0.957   0.000   0.000   0.043
   5655.328   1.293780E+013     0.956   0.000   0.000   0.044
   5704.852   1.300258E+013     0.956   0.000   0.000   0.044
   5754.377   1.306699E+013     0.956   0.000   0.000   0.044
   5803.902   1.313105E+013     0.956   0.000   0.000   0.044
   5853.427   1.319474E+013     0.956   0.000   0.000   0.044
   5902.951   1.325808E+013     0.956   0.000   0.000   0.044
   5952.476   1.332107E+013     0.955   0.000   0.000   0.045
   6002.001   1.338370E+013     0.955   0.000   0.000   0.045
   6051.526   1.344599E+013     0.955   0.000   0.000   0.045
   6101.051   1.350794E+013     0.955   0.000   0.000   0.045
   6150.575   1.356954E+013     0.955   0.000   0.000   0.045
   6200.100   1.363081E+013     0.955   0.000   0.000   0.045
   6249.625   1.369173E+013     0.954   0.000   0.000   0.046
   6299.150   1.375233E+013     0.954   0.000   0.000   0.046
   6348.674   1.381259E+013     0.954   0.000   0.000   0.046
   6398.199   1.387253E+013     0.954   0.000   0.000   0.046
   6447.724   1.393213E+013     0.954   0.000   0.000   0.046
   6497.249   1.399142E+013     0.954   0.000   0.000   0.046
   6546.773   1.405038E+013     0.954   0.000   0.000   0.046
   6596.298   1.410902E+013     0.953   0.000   0.000   0.047
   6645.823   1.416734E+013     0.953   0.000   0.000   0.047
   6695.348   1.422535E+013     0.953   0.000   0.000   0.047
   6744.872   1.428305E+013     0.953   0.000   0.000   0.047
   6794.397   1.434044E+013     0.953   0.000   0.000   0.047
   6843.922   1.439751E+013     0.953   0.000   0.000   0.047
   6893.447   1.445429E+013     0.952   0.000   0.000   0.048
   6942.971   1.451075E+013     0.952   0.000   0.000   0.048
   6992.496   1.456692E+013     0.952   0.000   0.000   0.048
   7042.021   1.462278E+013     0.952   0.000   0.000   0.048
   7091.546   1.467835E+013     0.952   0.000   0.000   0.048
   7141.071   1.473362E+013     0.952   0.000   0.000   0.048
   7190.595   1.478859E+013     0.952   0.000   0.000   0.048
   7240.120   1.484328E+013     0.952   0.000   0.000   0.048
   7289.645   1.489767E+013     0.951   0.000   0.000   0.049
   7339.170   1.495177E+013     0.951   0.000   0.000   0.049
   7388.694   1.500559E+013     0.951   0.000   0.000   0.049
   7438.219   1.505912E+013     0.951   0.000   0.000   0.049
   7487.744   1.511237E+013     0.951   0.000   0.000   0.049
   7537.269   1.516534E+013     0.951   0.000   0.000   0.049
   7586.793   1.521803E+013     0.951   0.000   0.000   0.049
   7636.318   1.527044E+013     0.950   0.000   0.000   0.050
   7685.843   1.532257E+013     0.950   0.000   0.000   0.050
   7735.368   1.537443E+013     0.950   0.000   0.000   0.050
   7784.892   1.542601E+013     0.950   0.000   0.000   0.050
   7834.417   1.547733E+013     0.950   0.000   0.000   0.050
   7883.942   1.552837E+013     0.950   0.000   0.000   0.050
   7933.467   1.557915E+013     0.950   0.000   0.000   0.050
   7982.991   1.562966E+013     0.950   0.000   0.000   0.050
   8032.516   1.567990E+013     0.949   0.000   0.000   0.051
   8082.041   1.572989E+013     0.949   0.000   0.000   0.051
   8131.566   1.577960E+013     0.949   0.000   0.000   0.051
   8181.091   1.582906E+013     0.949   0.000   0.000   0.051
   8230.615   1.587826E+013     0.949   0.000   0.000   0.051
   8280.140   1.592721E+013     0.949   0.000   0.000   0.051
   8329.665   1.597590E+013     0.949   0.000   0.000   0.051
   8379.190   1.602433E+013     0.949   0.000   0.000   0.051
   8428.714   1.607251E+013     0.948   0.000   0.000   0.052
   8478.239   1.612044E+013     0.948   0.000   0.000   0.052
   8527.764   1.616811E+013     0.948   0.000   0.000   0.052
   8577.289   1.621554E+013     0.948   0.000   0.000   0.052
   8626.813   1.626272E+013     0.948   0.000   0.000   0.052
   8676.338   1.630966E+013     0.948   0.000   0.000   0.052
   8725.863   1.635635E+013     0.948   0.000   0.000   0.052
   8775.388   1.640280E+013     0.948   0.000   0.000   0.052
   8824.912   1.644900E+013     0.947   0.000   0.000   0.053
   8874.437   1.649496E+013     0.947   0.000   0.000   0.053
   8923.962   1.654069E+013     0.947   0.000   0.000   0.053
   8973.487   1.658617E+013     0.947   0.000   0.000   0.053
   9023.012   1.663142E+013     0.947   0.000   0.000   0.053
   9072.536   1.667644E+013     0.947   0.000   0.000   0.053
   9122.061   1.672121E+013     0.947   0.000   0.000   0.053
   9171.586   1.676576E+013     0.947   0.000   0.000   0.053
   9221.111   1.681007E+013     0.947   0.000   0.000   0.053
   9270.635   1.685415E+013     0.946   0.000   0.000   0.054
   9320.160   1.689801E+013     0.946   0.000   0.000   0.054
   9369.685   1.694163E+013     0.946   0.000   0.000   0.054
   9419.210   1.698502E+013     0.946   0.000   0.000   0.054
   9468.734   1.702819E+013     0.946   0.000   0.000   0.054
   9518.259   1.707114E+013     0.946   0.000   0.000   0.054
   9567.784   1.711386E+013     0.946   0.000   0.000   0.054
   9617.309   1.715636E+013     0.946   0.000   0.000   0.054
   9666.833   1.719863E+013     0.946   0.000   0.000   0.054
   9716.358   1.724069E+013     0.945   0.000   0.000   0.055
   9765.883   1.728252E+013     0.945   0.000   0.000   0.055
   9815.408   1.732414E+013     0.945   0.000   0.000   0.055
   9864.932   1.736554E+013     0.945   0.000   0.000   0.055
   9914.457   1.740672E+013     0.945   0.000   0.000   0.055
   9963.982   1.744769E+013     0.945   0.000   0.000   0.055
  10013.507   1.748844E+013     0.945   0.000   0.000   0.055
  10063.032   1.752898E+013     0.945   0.000   0.000   0.055
  10112.556   1.756931E+013     0.945   0.000   0.000   0.055
  10162.081   1.760942E+013     0.945   0.000   0.000   0.055
  10211.606   1.764933E+013     0.944   0.000   0.000   0.056
  10261.131   1.768902E+013     0.944   0.000   0.000   0.056
  10310.655   1.772851E+013     0.944   0.000   0.000   0.056
  10360.180   1.776779E+013     0.944   0.000   0.000   0.056
  10409.705   1.780687E+013     0.944   0.000   0.000   0.056
  10459.230   1.784574E+013     0.944   0.000   0.000   0.056
  10508.754   1.788440E+013     0.944   0.000   0.000   0.056
  10558.279   1.792286E+013     0.944   0.000   0.000   0.056
  10607.804   1.796112E+013     0.944   0.000   0.000   0.056
  10657.329   1.799918E+013     0.944   0.000   0.000   0.056
  10706.853   1.803703E+013     0.943   0.000   0.000   0.057
  10756.378   1.807469E+013     0.943   0.000   0.000   0.057
  10805.903   1.811215E+013     0.943   0.000   0.000   0.057
  10855.428   1.814941E+013     0.943   0.000   0.000   0.057
  10904.952   1.818647E+013     0.943   0.000   0.000   0.057
  10954.477   1.822334E+013     0.943   0.000   0.000   0.057
  11004.002   1.826001E+013     0.943   0.000   0.000   0.057
  11053.527   1.829649E+013     0.943   0.000   0.000   0.057
  11103.052   1.833277E+013     0.943   0.000   0.000   0.057
  11152.576   1.836886E+013     0.943   0.000   0.000   0.057
  11202.101   1.840476E+013     0.943   0.000   0.000   0.057
  11251.626   1.844047E+013     0.942   0.000   0.000   0.058
  11301.151   1.847599E+013     0.942   0.000   0.000   0.058
  11350.675   1.851132E+013     0.942   0.000   0.000   0.058
  11400.200   1.854646E+013     0.942   0.000   0.000   0.058
  11449.725   1.858141E+013     0.942   0.000   0.000   0.058
  11499.250   1.861618E+013     0.942   0.000   0.000   0.058
  11548.774   1.865076E+013     0.942   0.000   0.000   0.058
  11598.299   1.868515E+013     0.942   0.000   0.000   0.058
  11647.824   1.871936E+013     0.942   0.000   0.000   0.058
  11697.349   1.875339E+013     0.942   0.000   0.000   0.058
  11746.873   1.878723E+013     0.942   0.000   0.000   0.058
  11796.398   1.882090E+013     0.941   0.000   0.000   0.059
  11845.923   1.885438E+013     0.941   0.000   0.000   0.059
  11895.448   1.888768E+013     0.941   0.000   0.000   0.059
  11944.972   1.892080E+013     0.941   0.000   0.000   0.059
  11994.497   1.895374E+013     0.941   0.000   0.000   0.059
  12044.022   1.898650E+013     0.941   0.000   0.000   0.059
  12093.547   1.901909E+013     0.941   0.000   0.000   0.059
  12143.072   1.905150E+013     0.941   0.000   0.000   0.059
  12192.596   1.908373E+013     0.941   0.000   0.000   0.059
  12242.121   1.911579E+013     0.941   0.000   0.000   0.059
  12291.646   1.914768E+013     0.941   0.000   0.000   0.059
  12341.171   1.917939E+013     0.941   0.000   0.000   0.059
  12390.695   1.921092E+013     0.940   0.000   0.000   0.060
  12440.220   1.924229E+013     0.940   0.000   0.000   0.060
  12489.745   1.927348E+013     0.940   0.000   0.000   0.060
  12539.270   1.930450E+013     0.940   0.000   0.000   0.060
  12588.794   1.933536E+013     0.940   0.000   0.000   0.060
  12638.319   1.936604E+013     0.940   0.000   0.000   0.060
  12687.844   1.939655E+013     0.940   0.000   0.000   0.060
  12737.369   1.942690E+013     0.940   0.000   0.000   0.060
  12786.893   1.945708E+013     0.940   0.000   0.000   0.060
  12836.418   1.948709E+013     0.940   0.000   0.000   0.060
  12885.943   1.951694E+013     0.940   0.000   0.000   0.060
  12935.468   1.954662E+013     0.940   0.000   0.000   0.060
  12984.992   1.957613E+013     0.940   0.000   0.000   0.060
  13034.517   1.960548E+013     0.939   0.000   0.000   0.061
  13084.042   1.963467E+013     0.939   0.000   0.000   0.061
  13133.567   1.966370E+013     0.939   0.000   0.000   0.061
  13183.092   1.969256E+013     0.939   0.000   0.000   0.061
  13232.616   1.972126E+013     0.939   0.000   0.000   0.061
  13282.141   1.974981E+013     0.939   0.000   0.000   0.061
  13331.666   1.977819E+013     0.939   0.000   0.000   0.061
  13381.191   1.980641E+013     0.939   0.000   0.000   0.061
  13430.715   1.983447E+013     0.939   0.000   0.000   0.061
  13480.240   1.986238E+013     0.939   0.000   0.000   0.061
  13529.765   1.989012E+013     0.939   0.000   0.000   0.061
  13579.290   1.991771E+013     0.939   0.000   0.000   0.061
  13628.814   1.994515E+013     0.939   0.000   0.000   0.061
  13678.339   1.997243E+013     0.938   0.000   0.000   0.062
  13727.864   1.999955E+013     0.938   0.000   0.000   0.062
  13777.389   2.002652E+013     0.938   0.000   0.000   0.062
  13826.913   2.005333E+013     0.938   0.000   0.000   0.062
  13876.438   2.007999E+013     0.938   0.000   0.000   0.062
  13925.963   2.010650E+013     0.938   0.000   0.000   0.062
  13975.488   2.013286E+013     0.938   0.000   0.000   0.062
  14025.013   2.015906E+013     0.938   0.000   0.000   0.062
  14074.537   2.018512E+013     0.938   0.000   0.000   0.062
  14124.062   2.021102E+013     0.938   0.000   0.000   0.062
  14173.587   2.023677E+013     0.938   0.000   0.000   0.062
  14223.112   2.026238E+013     0.938   0.000   0.000   0.062
  14272.636   2.028783E+013     0.938   0.000   0.000   0.062
  14322.161   2.031314E+013     0.938   0.000   0.000   0.062
  14371.686   2.033830E+013     0.937   0.000   0.000   0.063
  14421.211   2.036332E+013     0.937   0.000   0.000   0.063
  14470.735   2.038818E+013     0.937   0.000   0.000   0.063
  14520.260   2.041290E+013     0.937   0.000   0.000   0.063
  14569.785   2.043748E+013     0.937   0.000   0.000   0.063
  14619.310   2.046191E+013     0.937   0.000   0.000   0.063
  14668.834   2.048620E+013     0.937   0.000   0.000   0.063
  14718.359   2.051034E+013     0.937   0.000   0.000   0.063
  14767.884   2.053434E+013     0.937   0.000   0.000   0.063
  14817.409   2.055820E+013     0.937   0.000   0.000   0.063
  14866.933   2.058192E+013     0.937   0.000   0.000   0.063
  14916.458   2.060549E+013     0.937   0.000   0.000   0.063
  14965.983   2.062892E+013     0.937   0.000   0.000   0.063
  15015.508   2.065222E+013     0.937   0.000   0.000   0.063
  15065.033   2.067537E+013     0.937   0.000   0.000   0.063
  15114.557   2.069838E+013     0.936   0.000   0.000   0.064
  15164.082   2.072126E+013     0.936   0.000   0.000   0.064
  15213.607   2.074399E+013     0.936   0.000   0.000   0.064
  15263.132   2.076659E+013     0.936   0.000   0.000   0.064
  15312.656   2.078905E+013     0.936   0.000   0.000   0.064
  15362.181   2.081138E+013     0.936   0.000   0.000   0.064
  15411.706   2.083357E+013     0.936   0.000   0.000   0.064
  15461.231   2.085562E+013     0.936   0.000   0.000   0.064
  15510.755   2.087754E+013     0.936   0.000   0.000   0.064
  15560.280   2.089932E+013     0.936   0.000   0.000   0.064
  15609.805   2.092097E+013     0.936   0.000   0.000   0.064
  15659.330   2.094248E+013     0.936   0.000   0.000   0.064
  15708.854   2.096387E+013     0.936   0.000   0.000   0.064
  15758.379   2.098512E+013     0.936   0.000   0.000   0.064
  15807.904   2.100623E+013     0.936   0.000   0.000   0.064
  15857.429   2.102722E+013     0.935   0.000   0.000   0.065
  15906.953   2.104807E+013     0.935   0.000   0.000   0.065
  15956.478   2.106879E+013     0.935   0.000   0.000   0.065
  16006.003   2.108938E+013     0.935   0.000   0.000   0.065
  16055.528   2.110985E+013     0.935   0.000   0.000   0.065
  16105.053   2.113018E+013     0.935   0.000   0.000   0.065
  16154.577   2.115038E+013     0.935   0.000   0.000   0.065
  16204.102   2.117046E+013     0.935   0.000   0.000   0.065
  16253.627   2.119041E+013     0.935   0.000   0.000   0.065
  16303.152   2.121023E+013     0.935   0.000   0.000   0.065
